0.000000,-1234.000000,-1234.000000,-1234.000000,-1234.000000,-1234.000000
1.000000,0.383594,0.384743,0.369623,0.361811,0.387408
2.000000,0.384972,0.386765,0.371783,0.363794,0.397059
3.000000,0.386903,0.387730,0.374104,0.365518,0.393382
4.000000,0.392142,0.389614,0.376792,0.367747,0.402574
5.000000,0.398392,0.391016,0.379791,0.369593,0.411535
6.000000,0.404090,0.393842,0.383663,0.371569,0.415901
7.000000,0.408410,0.396691,0.386834,0.373752,0.418658
8.000000,0.415028,0.400965,0.390625,0.376746,0.426471
9.000000,0.420129,0.406135,0.394198,0.379695,0.428079
10.000000,0.423162,0.410777,0.396898,0.382192,0.426700
11.000000,0.425873,0.414982,0.399862,0.384743,0.429458
12.000000,0.430423,0.419416,0.403091,0.387661,0.441406
13.000000,0.433732,0.424380,0.406055,0.390862,0.443015
14.000000,0.437546,0.428837,0.409226,0.394141,0.447151
15.000000,0.440809,0.431985,0.411500,0.397189,0.443015
16.000000,0.440579,0.433226,0.413534,0.400184,0.428309
17.000000,0.439614,0.435018,0.415855,0.402895,0.436581
18.000000,0.437638,0.435685,0.418325,0.405645,0.433134
19.000000,0.433915,0.435731,0.420933,0.408042,0.428539
20.000000,0.429917,0.435363,0.423070,0.409720,0.423024
21.000000,0.426792,0.433686,0.424334,0.411137,0.412684
22.000000,0.420772,0.430193,0.424805,0.412125,0.406480
23.000000,0.417325,0.427482,0.425931,0.413197,0.415901
24.000000,0.413327,0.423621,0.426229,0.414024,0.408548
25.000000,0.412132,0.421025,0.426505,0.414675,0.417050
26.000000,0.417004,0.421898,0.427562,0.416322,0.437040
27.000000,0.424127,0.422449,0.428734,0.418053,0.442096
28.000000,0.430928,0.424127,0.429906,0.420259,0.449908
29.000000,0.441866,0.427596,0.431664,0.423154,0.463235
30.000000,0.455055,0.433594,0.434478,0.426578,0.482996
31.000000,0.467463,0.442233,0.437960,0.430300,0.499081
32.000000,0.481158,0.452642,0.441418,0.434084,0.510570
33.000000,0.490074,0.460501,0.443991,0.437454,0.494485
34.000000,0.498162,0.470014,0.446818,0.440824,0.503676
35.000000,0.501746,0.478401,0.449713,0.443804,0.500919
36.000000,0.499908,0.483686,0.452792,0.446270,0.489890
37.000000,0.494485,0.487822,0.455136,0.448430,0.483456
38.000000,0.494026,0.492050,0.458088,0.450620,0.492187
39.000000,0.491176,0.494669,0.461133,0.452665,0.489430
40.000000,0.484651,0.493199,0.463396,0.454052,0.468290
41.000000,0.481342,0.490625,0.466429,0.455515,0.473346
42.000000,0.476838,0.485662,0.469152,0.456166,0.460938
43.000000,0.467142,0.480584,0.470542,0.456189,0.443704
44.000000,0.457583,0.474380,0.472197,0.456005,0.441636
45.000000,0.453998,0.469324,0.473863,0.456250,0.450368
46.000000,0.450873,0.466108,0.474897,0.457230,0.457721
47.000000,0.450092,0.463465,0.475643,0.457912,0.457031
48.000000,0.452803,0.459972,0.476011,0.458716,0.457261
49.000000,0.453860,0.455721,0.475195,0.459329,0.446921
50.000000,0.454044,0.454021,0.473610,0.460271,0.451287
51.000000,0.456434,0.453653,0.472139,0.462171,0.469669
52.000000,0.460432,0.455262,0.470462,0.464522,0.477022
53.000000,0.461167,0.456985,0.468784,0.466023,0.460938
54.000000,0.464154,0.459007,0.466693,0.467800,0.461857
55.000000,0.464062,0.459053,0.464189,0.468926,0.450827
56.000000,0.458869,0.457652,0.461880,0.469148,0.443704
57.000000,0.451333,0.455882,0.459674,0.469056,0.439338
58.000000,0.445726,0.453447,0.456710,0.468490,0.432904
59.000000,0.439200,0.451677,0.453699,0.467356,0.429228
60.000000,0.435110,0.449586,0.451804,0.465602,0.430377
61.000000,0.429596,0.444233,0.448943,0.462837,0.416131
62.000000,0.423667,0.437500,0.446381,0.459475,0.409697
63.000000,0.418474,0.432100,0.444543,0.456556,0.406939
64.000000,0.415579,0.427390,0.443199,0.453592,0.414752
65.000000,0.411627,0.423369,0.441211,0.450582,0.410616
66.000000,0.408686,0.419141,0.438396,0.447633,0.401425
67.000000,0.407721,0.415694,0.435788,0.445014,0.404871
68.000000,0.412454,0.415464,0.434455,0.442961,0.430607
69.000000,0.419301,0.417440,0.434559,0.441613,0.448989
70.000000,0.433042,0.422335,0.435960,0.441981,0.479320
71.000000,0.448713,0.428699,0.436466,0.442195,0.479779
72.000000,0.465349,0.436535,0.437017,0.443099,0.488051
73.000000,0.477114,0.444784,0.438442,0.444623,0.489430
74.000000,0.484375,0.451838,0.439614,0.446078,0.485294
75.000000,0.485294,0.459168,0.441268,0.447197,0.483915
76.000000,0.487408,0.468061,0.443601,0.448284,0.490349
77.000000,0.487316,0.476333,0.446013,0.449303,0.487592
78.000000,0.488787,0.482950,0.449207,0.450620,0.496783
79.000000,0.487316,0.485846,0.451643,0.451654,0.477941
80.000000,0.487500,0.486397,0.454366,0.452773,0.484835
81.000000,0.485478,0.486443,0.457571,0.453125,0.480239
82.000000,0.482721,0.485018,0.460777,0.453018,0.473805
83.000000,0.477298,0.483042,0.463913,0.453309,0.469669
84.000000,0.479136,0.483226,0.467532,0.454151,0.487132
85.000000,0.479871,0.483686,0.471427,0.455407,0.488511
86.000000,0.494118,0.489798,0.478929,0.459000,0.551471
87.000000,0.514706,0.498713,0.487523,0.463580,0.576746
88.000000,0.534559,0.505928,0.494439,0.468114,0.568934
89.000000,0.551195,0.515165,0.500505,0.472817,0.570312
90.000000,0.569026,0.524449,0.505423,0.477727,0.577665
91.000000,0.573254,0.533686,0.510064,0.482943,0.572610
92.000000,0.569669,0.542187,0.513603,0.487914,0.558824
93.000000,0.570680,0.552619,0.517831,0.493482,0.573989
94.000000,0.572886,0.562040,0.522633,0.499035,0.581342
95.000000,0.578217,0.573621,0.528653,0.505492,0.604320
96.000000,0.584926,0.579090,0.534444,0.512316,0.606158
97.000000,0.596691,0.583180,0.540947,0.519409,0.617647
98.000000,0.604596,0.587638,0.546783,0.525505,0.613511
99.000000,0.603125,0.588005,0.551585,0.529672,0.573989
100.000000,0.596324,0.587270,0.555859,0.532705,0.570312
101.000000,0.590349,0.587638,0.560662,0.535922,0.576287
102.000000,0.579504,0.588097,0.565142,0.538434,0.563419
103.000000,0.569026,0.586811,0.569715,0.540824,0.561121
104.000000,0.560386,0.581755,0.571898,0.542341,0.530790
105.000000,0.550735,0.573529,0.573575,0.543612,0.522059
106.000000,0.542555,0.566452,0.572771,0.545113,0.535386
107.000000,0.519072,0.549288,0.566234,0.543727,0.446002
108.000000,0.493336,0.531181,0.559409,0.541582,0.432445
109.000000,0.474403,0.517394,0.552700,0.540188,0.436121
110.000000,0.455331,0.503033,0.545152,0.538251,0.426700
111.000000,0.427528,0.485041,0.536340,0.535455,0.396369
112.000000,0.419164,0.469118,0.528608,0.533134,0.404182
113.000000,0.413557,0.453447,0.520129,0.530959,0.404412
114.000000,0.407445,0.440924,0.511340,0.528240,0.405561
115.000000,0.404687,0.430009,0.501769,0.525720,0.412914
116.000000,0.407721,0.417624,0.492038,0.521055,0.411535
117.000000,0.407215,0.413189,0.481238,0.515219,0.401654
118.000000,0.398621,0.406089,0.468635,0.508303,0.361443
119.000000,0.389936,0.398690,0.458042,0.501363,0.362132
120.000000,0.381847,0.393267,0.448150,0.494524,0.372472
121.000000,0.375184,0.391452,0.438247,0.488044,0.378217
122.000000,0.372656,0.389936,0.429527,0.482384,0.389017
123.000000,0.375735,0.387178,0.420312,0.475812,0.376838
124.000000,0.379779,0.384858,0.412891,0.469179,0.382353
125.000000,0.384053,0.382950,0.406480,0.462163,0.393842
126.000000,0.386719,0.380951,0.399288,0.455009,0.391544
127.000000,0.385478,0.379067,0.396128,0.447181,0.382813
128.000000,0.387960,0.381847,0.393968,0.439706,0.389246
129.000000,0.389292,0.384536,0.391613,0.433540,0.389017
130.000000,0.390901,0.387477,0.390372,0.427926,0.401884
131.000000,0.395267,0.390993,0.391222,0.422495,0.413373
132.000000,0.401930,0.393704,0.391820,0.417586,0.416131
133.000000,0.408732,0.398346,0.392762,0.412990,0.423254
134.000000,0.415441,0.402367,0.393612,0.409383,0.422564
135.000000,0.416176,0.403539,0.393244,0.405499,0.405561
136.000000,0.415303,0.405285,0.393118,0.401287,0.409007
137.000000,0.414017,0.407973,0.393520,0.400077,0.409697
138.000000,0.409972,0.409352,0.395600,0.399096,0.403033
139.000000,0.406893,0.411167,0.397852,0.398131,0.407169
140.000000,0.406985,0.411581,0.399529,0.397442,0.406020
141.000000,0.405928,0.410616,0.400804,0.397687,0.403722
142.000000,0.404228,0.409122,0.401413,0.397587,0.401195
143.000000,0.402665,0.406319,0.402332,0.397281,0.395221
144.000000,0.398116,0.402505,0.402436,0.396576,0.384421
145.000000,0.392923,0.399954,0.401746,0.395481,0.380055
146.000000,0.386029,0.395979,0.400632,0.394072,0.369255
147.000000,0.379596,0.391912,0.399943,0.392984,0.369026
148.000000,0.377344,0.390005,0.399678,0.393735,0.383961
149.000000,0.384559,0.391337,0.401252,0.395680,0.420496
150.000000,0.395726,0.394324,0.402953,0.397794,0.435892
151.000000,0.406250,0.396140,0.403378,0.399249,0.421875
152.000000,0.415717,0.397656,0.403389,0.400161,0.416360
153.000000,0.423529,0.400437,0.403378,0.401700,0.423024
154.000000,0.424403,0.404481,0.403493,0.403117,0.424862
155.000000,0.418704,0.407215,0.403585,0.403569,0.407399
156.000000,0.414292,0.410271,0.403125,0.403845,0.399816
157.000000,0.411765,0.413741,0.402826,0.404542,0.403722
158.000000,0.405147,0.414338,0.402171,0.404565,0.389936
159.000000,0.398667,0.411535,0.401436,0.404680,0.392463
160.000000,0.395175,0.406939,0.400632,0.404282,0.389936
161.000000,0.392187,0.403240,0.399690,0.403332,0.384881
162.000000,0.386351,0.399058,0.398357,0.401945,0.374540
163.000000,0.386213,0.395680,0.398058,0.400812,0.389246
164.000000,0.387132,0.392900,0.398690,0.399962,0.397059
165.000000,0.385616,0.390395,0.398805,0.399188,0.382353
166.000000,0.384743,0.388465,0.399368,0.398238,0.380515
167.000000,0.386075,0.386213,0.399977,0.397289,0.381204
168.000000,0.383088,0.384651,0.399494,0.396331,0.374311
169.000000,0.380653,0.383892,0.397714,0.395588,0.384881
170.000000,0.381158,0.383387,0.395163,0.394884,0.384881
171.000000,0.383502,0.384122,0.393681,0.394501,0.392233
172.000000,0.385800,0.385937,0.392498,0.394217,0.392693
173.000000,0.390901,0.386994,0.391337,0.394370,0.399816
174.000000,0.395772,0.388212,0.390556,0.395198,0.409237
175.000000,0.400322,0.390740,0.390568,0.396117,0.407629
176.000000,0.403309,0.393405,0.390935,0.397381,0.407169
177.000000,0.405653,0.395726,0.390970,0.398560,0.404412
178.000000,0.406342,0.398621,0.391636,0.399203,0.403263
179.000000,0.406618,0.401195,0.392544,0.398874,0.410616
180.000000,0.407583,0.403952,0.393670,0.398093,0.412454
181.000000,0.408272,0.405790,0.394956,0.397718,0.410616
182.000000,0.409697,0.407675,0.396806,0.397557,0.411535
183.000000,0.409789,0.408065,0.397530,0.396913,0.403722
184.000000,0.406756,0.406687,0.397449,0.395933,0.395450
185.000000,0.402574,0.405078,0.397909,0.395404,0.391544
186.000000,0.397243,0.402757,0.398081,0.394876,0.383961
187.000000,0.395129,0.402413,0.399069,0.394784,0.400965
188.000000,0.393658,0.401723,0.400172,0.394998,0.396369
189.000000,0.391682,0.399219,0.400207,0.394769,0.385570
190.000000,0.389752,0.396163,0.400057,0.394501,0.381893
191.000000,0.387500,0.392371,0.399081,0.394095,0.372702
192.000000,0.381112,0.388120,0.397898,0.393911,0.369026
193.000000,0.376608,0.385133,0.396599,0.393398,0.373851
194.000000,0.373116,0.382399,0.394543,0.392433,0.368107
195.000000,0.368750,0.379251,0.392165,0.391690,0.360064
196.000000,0.366728,0.377114,0.389936,0.391092,0.362592
197.000000,0.365533,0.373323,0.387868,0.390487,0.363051
198.000000,0.363143,0.369876,0.385800,0.390074,0.361903
199.000000,0.361857,0.367486,0.383352,0.389300,0.361673
200.000000,0.366774,0.367762,0.381962,0.389292,0.384651
201.000000,0.370450,0.368589,0.380480,0.388917,0.380974
202.000000,0.376746,0.371140,0.379630,0.388978,0.394531
203.000000,0.384237,0.373690,0.379412,0.388963,0.399357
204.000000,0.392463,0.377160,0.379779,0.388748,0.402803
205.000000,0.397840,0.382307,0.380779,0.388879,0.411535
206.000000,0.402619,0.386535,0.381824,0.388802,0.404871
207.000000,0.406847,0.391797,0.382560,0.389177,0.415671
208.000000,0.409972,0.397105,0.383490,0.389568,0.414982
209.000000,0.411213,0.401838,0.384662,0.389514,0.409007
210.000000,0.412546,0.405193,0.386477,0.389706,0.418199
211.000000,0.414568,0.408594,0.388591,0.389851,0.414982
212.000000,0.413235,0.410041,0.390591,0.389767,0.409007
213.000000,0.411857,0.410915,0.392302,0.389913,0.408088
214.000000,0.411489,0.411351,0.394256,0.390303,0.407169
215.000000,0.407261,0.409903,0.396105,0.390487,0.397059
216.000000,0.404687,0.409628,0.398081,0.391092,0.402114
217.000000,0.402665,0.407950,0.399874,0.391023,0.398897
218.000000,0.400138,0.405997,0.401551,0.390993,0.395450
219.000000,0.398667,0.405078,0.403458,0.391468,0.399816
220.000000,0.397381,0.402321,0.403757,0.391759,0.390625
221.000000,0.393520,0.399104,0.403849,0.392096,0.382813
222.000000,0.390533,0.396599,0.403320,0.392593,0.383961
223.000000,0.387822,0.393980,0.402447,0.392862,0.381893
224.000000,0.385800,0.392233,0.401792,0.393581,0.389706
225.000000,0.384789,0.391085,0.400494,0.394432,0.385570
226.000000,0.384972,0.389246,0.399437,0.395136,0.383732
227.000000,0.384605,0.387569,0.397760,0.395772,0.382123
228.000000,0.385800,0.386811,0.396404,0.396638,0.387868
229.000000,0.386949,0.386374,0.395726,0.397763,0.395450
230.000000,0.388971,0.386880,0.394600,0.398131,0.395680
231.000000,0.392693,0.388833,0.393968,0.398843,0.402344
232.000000,0.397886,0.391245,0.393922,0.399295,0.408088
233.000000,0.401838,0.393819,0.393899,0.399571,0.407629
234.000000,0.402711,0.394830,0.393532,0.399472,0.399816
235.000000,0.402344,0.395657,0.393371,0.398882,0.393842
236.000000,0.400735,0.396714,0.392980,0.398529,0.394301
237.000000,0.397151,0.397518,0.392544,0.397679,0.390165
238.000000,0.394118,0.397978,0.392394,0.396929,0.392463
239.000000,0.391682,0.397197,0.391785,0.396216,0.387638
240.000000,0.389936,0.396140,0.391510,0.395113,0.385110
241.000000,0.386903,0.393819,0.391326,0.393918,0.379136
242.000000,0.382812,0.389982,0.390614,0.392609,0.369715
243.000000,0.378722,0.386420,0.390119,0.391406,0.372013
244.000000,0.376562,0.384122,0.389476,0.390395,0.376838
245.000000,0.373483,0.381710,0.388683,0.389484,0.369715
246.000000,0.372197,0.379550,0.388132,0.388503,0.372702
247.000000,0.373208,0.378010,0.387764,0.387699,0.374770
248.000000,0.374816,0.376769,0.387374,0.387186,0.380055
249.000000,0.377114,0.376838,0.387017,0.386803,0.388327
250.000000,0.381112,0.377298,0.386719,0.386772,0.389706
251.000000,0.385570,0.378883,0.386351,0.387178,0.394991
252.000000,0.389246,0.381227,0.385604,0.387485,0.393153
253.000000,0.391360,0.383088,0.384754,0.387776,0.390625
254.000000,0.392739,0.384926,0.384524,0.387960,0.395221
255.000000,0.394623,0.387868,0.384789,0.388411,0.399127
256.000000,0.395267,0.390418,0.384984,0.388894,0.398208
257.000000,0.396967,0.393107,0.385558,0.389545,0.401654
258.000000,0.399632,0.395496,0.386133,0.390081,0.403952
259.000000,0.399724,0.396232,0.386535,0.390089,0.395680
260.000000,0.399724,0.397174,0.387236,0.390204,0.399127
261.000000,0.402528,0.398897,0.388890,0.390533,0.412224
262.000000,0.403585,0.400276,0.390751,0.390495,0.406939
263.000000,0.405101,0.402367,0.392727,0.390625,0.411535
264.000000,0.408272,0.403998,0.394462,0.391016,0.411535
265.000000,0.409145,0.404435,0.396151,0.391337,0.403493
266.000000,0.407399,0.404963,0.397691,0.391644,0.403493
267.000000,0.405239,0.404412,0.398759,0.391843,0.396140
268.000000,0.402436,0.403768,0.399632,0.392011,0.397518
269.000000,0.398529,0.403401,0.399816,0.392157,0.392004
270.000000,0.393658,0.401402,0.399288,0.391958,0.379136
271.000000,0.388649,0.398024,0.398460,0.391935,0.378447
272.000000,0.386351,0.395795,0.398035,0.392433,0.384651
273.000000,0.382950,0.392693,0.397530,0.392716,0.380515
274.000000,0.380653,0.389591,0.396795,0.392839,0.380515
275.000000,0.379917,0.386788,0.395611,0.393030,0.375460
276.000000,0.378722,0.383686,0.394324,0.393022,0.372472
277.000000,0.376517,0.381434,0.392923,0.392984,0.373621
278.000000,0.375597,0.379274,0.391521,0.392846,0.375919
279.000000,0.376287,0.378470,0.390935,0.392701,0.383961
280.000000,0.379044,0.379481,0.390441,0.392685,0.389246
281.000000,0.381388,0.380055,0.389040,0.392325,0.384191
282.000000,0.384375,0.380446,0.388120,0.392172,0.388557
283.000000,0.386627,0.381112,0.386903,0.392057,0.387178
284.000000,0.385432,0.380859,0.385225,0.391483,0.377987
285.000000,0.383456,0.381250,0.384019,0.390824,0.379366
286.000000,0.382583,0.381985,0.382835,0.390211,0.379825
287.000000,0.381618,0.382996,0.382215,0.389614,0.383732
288.000000,0.380699,0.383663,0.381468,0.388902,0.382583
289.000000,0.381066,0.383249,0.380859,0.388373,0.379825
290.000000,0.381801,0.382629,0.381055,0.387837,0.383042
291.000000,0.383364,0.382973,0.381514,0.387017,0.387638
292.000000,0.384099,0.382858,0.381652,0.386366,0.387408
293.000000,0.384881,0.382790,0.381951,0.385532,0.386489
294.000000,0.397243,0.389154,0.385007,0.386535,0.441636
295.000000,0.415947,0.398874,0.390062,0.388971,0.476562
296.000000,0.430055,0.406710,0.394347,0.390793,0.458180
297.000000,0.445772,0.414936,0.398966,0.393122,0.465993
298.000000,0.461397,0.423139,0.403401,0.395358,0.464614
299.000000,0.470588,0.433915,0.408582,0.398545,0.487592
300.000000,0.472886,0.444416,0.413523,0.402175,0.488051
301.000000,0.477849,0.453952,0.418463,0.405660,0.482996
302.000000,0.480790,0.463281,0.423070,0.408862,0.480699
303.000000,0.481985,0.471691,0.427240,0.411864,0.470588
304.000000,0.481893,0.476241,0.432698,0.415418,0.487132
305.000000,0.477757,0.475322,0.437098,0.418482,0.467371
306.000000,0.474632,0.476241,0.441475,0.421645,0.467371
307.000000,0.472886,0.476838,0.445887,0.424923,0.471967
308.000000,0.476195,0.479090,0.451114,0.428631,0.487132
309.000000,0.475919,0.478906,0.456411,0.432024,0.485754
310.000000,0.480331,0.479044,0.461730,0.435363,0.489430
311.000000,0.481434,0.478033,0.465993,0.438320,0.472886
312.000000,0.481710,0.477298,0.470290,0.441146,0.473346
313.000000,0.475322,0.475758,0.473725,0.443413,0.455193
314.000000,0.471829,0.473874,0.475057,0.446423,0.468290
315.000000,0.464890,0.472610,0.473966,0.448935,0.454733
316.000000,0.463327,0.472380,0.474311,0.451777,0.465074
317.000000,0.461305,0.471507,0.474173,0.454427,0.463235
318.000000,0.463649,0.469485,0.474288,0.457238,0.466912
319.000000,0.463649,0.467739,0.473323,0.460187,0.468290
320.000000,0.470772,0.467831,0.473437,0.463764,0.490349
321.000000,0.475827,0.469577,0.473805,0.467187,0.490349
322.000000,0.477849,0.469577,0.473437,0.470052,0.473346
323.000000,0.480607,0.472128,0.473943,0.473192,0.480699
324.000000,0.484191,0.473920,0.473897,0.474678,0.486213
325.000000,0.481158,0.475965,0.474288,0.474632,0.475184
326.000000,0.475551,0.475689,0.474035,0.474770,0.462316
327.000000,0.470956,0.474403,0.472955,0.474249,0.450368
328.000000,0.466406,0.473506,0.471496,0.474027,0.457950
329.000000,0.461811,0.473001,0.470370,0.473215,0.463235
330.000000,0.461535,0.471346,0.469589,0.472740,0.473805
331.000000,0.460983,0.468267,0.468922,0.471959,0.459559
332.000000,0.463373,0.467165,0.468371,0.471346,0.462316
333.000000,0.461167,0.463787,0.467957,0.470558,0.446921
334.000000,0.458180,0.459995,0.466958,0.469263,0.448300
335.000000,0.453998,0.457767,0.466866,0.468781,0.452895
336.000000,0.452665,0.456824,0.466257,0.468298,0.452895
337.000000,0.451287,0.457330,0.465866,0.467747,0.455423
338.000000,0.453493,0.457330,0.465418,0.466774,0.457950
339.000000,0.454136,0.456158,0.464579,0.465633,0.451517
340.000000,0.454366,0.454182,0.462764,0.464453,0.454044
341.000000,0.456342,0.454504,0.461386,0.464116,0.462776
342.000000,0.454963,0.453125,0.460145,0.463289,0.448529
343.000000,0.452528,0.453010,0.458398,0.462975,0.445772
344.000000,0.449540,0.451838,0.455917,0.461918,0.436581
345.000000,0.446645,0.450506,0.454136,0.461412,0.439568
346.000000,0.436765,0.446553,0.451689,0.459689,0.413373
347.000000,0.429963,0.442463,0.449897,0.458065,0.414522
348.000000,0.424081,0.438304,0.447817,0.456380,0.416360
349.000000,0.420129,0.434835,0.445496,0.454665,0.416820
350.000000,0.417877,0.432261,0.443221,0.452596,0.428309
351.000000,0.421737,0.429251,0.441877,0.450674,0.432675
352.000000,0.425597,0.427780,0.440453,0.449357,0.433824
353.000000,0.428676,0.426379,0.439694,0.447725,0.431755
354.000000,0.432445,0.426287,0.439062,0.446040,0.435662
355.000000,0.438281,0.428079,0.439292,0.445450,0.457491
356.000000,0.443934,0.432835,0.439694,0.445404,0.460938
357.000000,0.450919,0.438258,0.440361,0.446017,0.468750
358.000000,0.456847,0.442762,0.440533,0.446132,0.461397
359.000000,0.460616,0.446530,0.440682,0.445841,0.454504
360.000000,0.461029,0.449655,0.440958,0.445366,0.459559
361.000000,0.462868,0.453401,0.441326,0.445718,0.470129
362.000000,0.463603,0.457261,0.442521,0.446055,0.472426
363.000000,0.466176,0.461512,0.443945,0.446967,0.474265
364.000000,0.468750,0.464683,0.445485,0.447603,0.467371
365.000000,0.471507,0.466268,0.447174,0.448284,0.473346
366.000000,0.470956,0.466912,0.449874,0.448767,0.467371
367.000000,0.470129,0.466866,0.452562,0.449196,0.468290
368.000000,0.467555,0.466866,0.454814,0.449311,0.461397
369.000000,0.465211,0.466981,0.456756,0.449449,0.455653
370.000000,0.467142,0.469324,0.459490,0.450414,0.482996
371.000000,0.469256,0.470106,0.461753,0.450919,0.477941
372.000000,0.470358,0.470244,0.463752,0.451762,0.473805
373.000000,0.472013,0.469784,0.465648,0.452558,0.469669
374.000000,0.473621,0.469416,0.467050,0.453462,0.463695
375.000000,0.469945,0.468543,0.467406,0.454297,0.464614
376.000000,0.468290,0.468773,0.467842,0.456173,0.469669
377.000000,0.470221,0.470290,0.468578,0.458471,0.483456
378.000000,0.474632,0.473323,0.470094,0.460983,0.491728
379.000000,0.480515,0.477068,0.472024,0.463526,0.493107
380.000000,0.492187,0.481066,0.475195,0.466682,0.522978
381.000000,0.502022,0.485156,0.477631,0.469554,0.518842
382.000000,0.509375,0.489798,0.480021,0.472434,0.520221
383.000000,0.514154,0.494393,0.482089,0.475230,0.515625
384.000000,0.518842,0.499678,0.484547,0.477926,0.516544
385.000000,0.517004,0.504596,0.486569,0.479802,0.513787
386.000000,0.515993,0.509007,0.488890,0.481564,0.513787
387.000000,0.516360,0.512868,0.491579,0.483341,0.522059
388.000000,0.517187,0.515671,0.494497,0.485286,0.519761
389.000000,0.520221,0.519531,0.498300,0.487860,0.531710
390.000000,0.526011,0.521507,0.501287,0.490633,0.542739
391.000000,0.532904,0.524449,0.504802,0.493237,0.548254
392.000000,0.537592,0.526976,0.508387,0.495672,0.545496
393.000000,0.544393,0.530790,0.512592,0.498323,0.553768
394.000000,0.550919,0.535570,0.517624,0.501555,0.564338
395.000000,0.556342,0.541176,0.522886,0.504772,0.569853
396.000000,0.561213,0.547059,0.528033,0.508280,0.572610
397.000000,0.567555,0.552574,0.532721,0.511910,0.577206
398.000000,0.572610,0.558502,0.537086,0.515832,0.579044
399.000000,0.575643,0.563281,0.541406,0.519960,0.579504
400.000000,0.571048,0.563695,0.542601,0.522089,0.546875
401.000000,0.563879,0.562546,0.543497,0.524050,0.536765
402.000000,0.559651,0.563603,0.545290,0.526792,0.556066
403.000000,0.551103,0.561857,0.546324,0.529013,0.536305
404.000000,0.540074,0.557858,0.546714,0.531036,0.524357
405.000000,0.533915,0.552482,0.546829,0.532751,0.516085
406.000000,0.527482,0.545680,0.546369,0.533915,0.504596
407.000000,0.518842,0.539246,0.545910,0.534896,0.512868
408.000000,0.514522,0.532812,0.545657,0.535662,0.514706
409.000000,0.512776,0.526425,0.544853,0.536412,0.515625
410.000000,0.513787,0.523851,0.543773,0.536351,0.521140
411.000000,0.515625,0.521553,0.542050,0.536183,0.513787
412.000000,0.517371,0.518107,0.540855,0.536229,0.521599
413.000000,0.520772,0.517647,0.539752,0.536765,0.531710
414.000000,0.522151,0.517463,0.537661,0.536964,0.522518
415.000000,0.523713,0.518750,0.535616,0.537469,0.528952
416.000000,0.527114,0.521369,0.533525,0.538036,0.530790
417.000000,0.531066,0.524219,0.531733,0.538680,0.541360
418.000000,0.536397,0.528585,0.530699,0.539966,0.558364
419.000000,0.540533,0.531342,0.528883,0.540349,0.543199
420.000000,0.543658,0.533686,0.528768,0.540411,0.544577
421.000000,0.546048,0.536581,0.529067,0.540227,0.542739
422.000000,0.548529,0.539798,0.528952,0.540502,0.553768
423.000000,0.549173,0.542785,0.530216,0.540763,0.561581
424.000000,0.553676,0.547105,0.532284,0.540809,0.565717
425.000000,0.557904,0.550781,0.534766,0.540671,0.565717
426.000000,0.560662,0.553355,0.537362,0.540135,0.556526
427.000000,0.559651,0.554090,0.539154,0.539185,0.548713
428.000000,0.556710,0.552941,0.540763,0.538113,0.546875
429.000000,0.553585,0.553630,0.542486,0.537132,0.550092
430.000000,0.553217,0.555561,0.544623,0.537699,0.563879
431.000000,0.553217,0.556939,0.546760,0.538358,0.556526
432.000000,0.554228,0.556939,0.548369,0.538281,0.553768
433.000000,0.556618,0.556664,0.549724,0.539032,0.558824
434.000000,0.559743,0.556664,0.551884,0.540411,0.565717
435.000000,0.560110,0.556664,0.553722,0.542065,0.565717
436.000000,0.560937,0.557077,0.555216,0.543934,0.560662
437.000000,0.561121,0.557675,0.555882,0.545328,0.554687
438.000000,0.559835,0.558226,0.555584,0.546584,0.552390
439.000000,0.556158,0.557950,0.555790,0.547641,0.547335
440.000000,0.552574,0.556342,0.555951,0.548529,0.547794
441.000000,0.550827,0.555882,0.556411,0.549801,0.551930
442.000000,0.549081,0.555101,0.556020,0.550613,0.545956
443.000000,0.547243,0.553539,0.555101,0.550996,0.543199
444.000000,0.541912,0.549035,0.552849,0.550934,0.520680
445.000000,0.538327,0.545450,0.551057,0.550965,0.529871
446.000000,0.534467,0.542647,0.549862,0.551026,0.532629
447.000000,0.531618,0.540349,0.549012,0.550705,0.531710
448.000000,0.532629,0.539936,0.549081,0.550368,0.548254
449.000000,0.538235,0.540074,0.549012,0.550551,0.548713
450.000000,0.537132,0.537730,0.547036,0.549877,0.524357
451.000000,0.535202,0.534835,0.545358,0.549219,0.522978
452.000000,0.534007,0.532812,0.543957,0.548284,0.525735
453.000000,0.523897,0.528263,0.540901,0.546155,0.497702
454.000000,0.516820,0.527528,0.538281,0.544409,0.513327
455.000000,0.520312,0.528722,0.537086,0.543612,0.541820
456.000000,0.524173,0.529687,0.536167,0.543137,0.542279
457.000000,0.527941,0.530974,0.535662,0.542999,0.544577
458.000000,0.539798,0.531847,0.535892,0.543336,0.556985
459.000000,0.548529,0.532675,0.536374,0.543566,0.556985
460.000000,0.550551,0.535432,0.536581,0.543168,0.551930
461.000000,0.550827,0.537500,0.536167,0.542739,0.543658
462.000000,0.551838,0.539890,0.536351,0.542601,0.549632
463.000000,0.550276,0.545037,0.536650,0.542279,0.549173
464.000000,0.549357,0.548943,0.538235,0.541835,0.552390
465.000000,0.552757,0.551654,0.540188,0.541942,0.568934
466.000000,0.557445,0.554136,0.541912,0.542157,0.567096
467.000000,0.566820,0.559329,0.545152,0.543551,0.596507
468.000000,0.578768,0.564522,0.548185,0.545435,0.608915
469.000000,0.589522,0.569439,0.551057,0.547396,0.606158
470.000000,0.594577,0.573667,0.554550,0.548943,0.594210
471.000000,0.604136,0.580790,0.559145,0.551042,0.614890
472.000000,0.608456,0.587638,0.563764,0.553447,0.618107
473.000000,0.608915,0.593842,0.569439,0.555714,0.611213
474.000000,0.612408,0.600965,0.574954,0.559145,0.623621
475.000000,0.618107,0.606342,0.578998,0.562240,0.622702
476.000000,0.619210,0.611673,0.582904,0.565165,0.620404
477.000000,0.620037,0.614246,0.586788,0.568183,0.622243
478.000000,0.621140,0.615028,0.589775,0.570466,0.616728
479.000000,0.621323,0.616866,0.593153,0.572993,0.624540
480.000000,0.622426,0.620267,0.596967,0.576455,0.628217
481.000000,0.626562,0.622886,0.601838,0.580392,0.641085
482.000000,0.632629,0.626333,0.606985,0.584620,0.652574
483.000000,0.640625,0.630882,0.612362,0.589920,0.656710
484.000000,0.647518,0.634421,0.617693,0.594776,0.659007
485.000000,0.653401,0.637914,0.622128,0.598637,0.657629
486.000000,0.654136,0.640349,0.626011,0.602053,0.644761
487.000000,0.657445,0.645037,0.629642,0.606204,0.669118
488.000000,0.659191,0.649908,0.632468,0.609819,0.665441
489.000000,0.661857,0.654687,0.635777,0.613664,0.672335
490.000000,0.666728,0.660064,0.640165,0.617999,0.681985
491.000000,0.675551,0.664844,0.643865,0.622840,0.688879
492.000000,0.678768,0.668107,0.647220,0.627359,0.685202
493.000000,0.683915,0.671553,0.651218,0.632093,0.691176
494.000000,0.686489,0.674173,0.654297,0.636520,0.685202
495.000000,0.680607,0.673667,0.655790,0.639308,0.652574
496.000000,0.672243,0.673897,0.657123,0.641973,0.647059
497.000000,0.668199,0.673483,0.659260,0.644255,0.664982
498.000000,0.667463,0.675689,0.662799,0.646875,0.687500
499.000000,0.669210,0.677849,0.666268,0.649801,0.693934
500.000000,0.681618,0.681112,0.670588,0.653814,0.714614
501.000000,0.696875,0.684559,0.674701,0.657430,0.723346
502.000000,0.709191,0.688695,0.678401,0.661045,0.726563
503.000000,0.717371,0.692417,0.681985,0.664951,0.728401
504.000000,0.723897,0.696553,0.685363,0.668382,0.726563
505.000000,0.725827,0.703722,0.688695,0.671768,0.724265
506.000000,0.728676,0.712776,0.693336,0.675674,0.737592
507.000000,0.731250,0.720221,0.696852,0.679580,0.739430
508.000000,0.737592,0.727482,0.701585,0.684360,0.760110
509.000000,0.739798,0.731847,0.704848,0.688128,0.737592
510.000000,0.742187,0.734007,0.707560,0.691728,0.736213
511.000000,0.744485,0.736581,0.710570,0.695328,0.749081
512.000000,0.744945,0.738097,0.713396,0.698300,0.741728
513.000000,0.741544,0.739568,0.715993,0.701180,0.743107
514.000000,0.742923,0.741360,0.718957,0.704029,0.744485
515.000000,0.744118,0.743153,0.723437,0.706847,0.742187
516.000000,0.739706,0.742096,0.727436,0.709589,0.727022
517.000000,0.739614,0.742279,0.731250,0.711994,0.741268
518.000000,0.739154,0.740349,0.733915,0.714507,0.740809
519.000000,0.738695,0.740809,0.736328,0.716835,0.742187
520.000000,0.748437,0.746278,0.740142,0.720466,0.790901
521.000000,0.760846,0.750276,0.743428,0.723805,0.789062
522.000000,0.773713,0.756664,0.747380,0.727819,0.805607
523.000000,0.790533,0.764844,0.752206,0.732276,0.824908
524.000000,0.805515,0.772105,0.756733,0.736673,0.817096
525.000000,0.812592,0.780515,0.761834,0.742463,0.826287
526.000000,0.821691,0.791268,0.766682,0.748713,0.834559
527.000000,0.825276,0.799494,0.770887,0.753998,0.823529
528.000000,0.823437,0.806985,0.773667,0.758272,0.815717
529.000000,0.825827,0.815671,0.778240,0.762776,0.829044
530.000000,0.825735,0.819164,0.782721,0.766483,0.825827
531.000000,0.820129,0.820910,0.785593,0.769255,0.806526
532.000000,0.816728,0.821002,0.788833,0.771921,0.806526
533.000000,0.807996,0.815717,0.790280,0.773376,0.772059
534.000000,0.800919,0.813373,0.792739,0.775613,0.793658
535.000000,0.795496,0.810616,0.795565,0.778094,0.798713
536.000000,0.793107,0.806618,0.798943,0.779994,0.794577
537.000000,0.791268,0.803998,0.801746,0.781924,0.797335
538.000000,0.795221,0.801608,0.804297,0.782981,0.791820
539.000000,0.799816,0.800368,0.808019,0.785616,0.816636
540.000000,0.805147,0.800322,0.809743,0.788588,0.825368
541.000000,0.815074,0.804090,0.812500,0.791759,0.844210
542.000000,0.828309,0.809789,0.815395,0.795818,0.863511
543.000000,0.844393,0.819807,0.817762,0.800123,0.872243
544.000000,0.856158,0.827987,0.820680,0.804488,0.875460
545.000000,0.864890,0.835018,0.822817,0.808716,0.869026
546.000000,0.869026,0.842050,0.824334,0.813312,0.864890
547.000000,0.872426,0.850368,0.827183,0.817953,0.880515
548.000000,0.875368,0.859880,0.830744,0.822825,0.886949
549.000000,0.875092,0.865625,0.832996,0.827221,0.874081
550.000000,0.877114,0.871002,0.835662,0.830162,0.879136
551.000000,0.882445,0.875735,0.839913,0.833578,0.891544
552.000000,0.885110,0.878768,0.844278,0.836520,0.893842
553.000000,0.882261,0.878814,0.849311,0.838113,0.872702
554.000000,0.881801,0.878447,0.853217,0.839936,0.871783
555.000000,0.883548,0.880331,0.857675,0.841988,0.887868
556.000000,0.886121,0.884283,0.863166,0.844317,0.904412
557.000000,0.886489,0.885800,0.868084,0.846722,0.895680
558.000000,0.893750,0.888005,0.873943,0.849831,0.909007
559.000000,0.900643,0.891222,0.878424,0.852405,0.906250
560.000000,0.905698,0.894623,0.882812,0.855316,0.913143
561.000000,0.913511,0.899816,0.887776,0.859880,0.943474
562.000000,0.922702,0.904596,0.891682,0.864384,0.941636
563.000000,0.932169,0.912960,0.895887,0.870527,0.956342
564.000000,0.945404,0.923024,0.900735,0.876486,0.972426
565.000000,0.954412,0.930055,0.905193,0.881801,0.958180
566.000000,0.950551,0.932031,0.908157,0.886121,0.924173
567.000000,0.949357,0.936029,0.910914,0.890732,0.935662
568.000000,0.945956,0.939062,0.913534,0.895649,0.939338
569.000000,0.938787,0.942096,0.916659,0.899648,0.936581
570.000000,0.934651,0.944531,0.919577,0.903385,0.937500
571.000000,0.940993,0.945772,0.922794,0.907108,0.955882
572.000000,0.945221,0.947289,0.925942,0.910218,0.956801
573.000000,0.949816,0.947886,0.930423,0.913220,0.962316
574.000000,0.959375,0.949081,0.936052,0.916850,0.984375
575.000000,0.971875,0.953263,0.941659,0.921216,1.000000
576.000000,0.979044,0.960018,0.946025,0.925444,0.991728
577.000000,0.982353,0.963787,0.949908,0.928539,0.973346
578.000000,0.984375,0.967096,0.953079,0.931388,0.972426
579.000000,0.980147,0.969761,0.955928,0.934360,0.963235
580.000000,0.971783,0.971829,0.958180,0.936994,0.958180
581.000000,0.967923,0.973483,0.959628,0.939691,0.972426
582.000000,0.970221,0.976287,0.961788,0.942724,0.984835
583.000000,0.972059,0.978217,0.963051,0.946354,0.981618
584.000000,0.975368,0.977757,0.963419,0.949954,0.979779
585.000000,0.975551,0.973667,0.963465,0.952328,0.959099
586.000000,0.975092,0.971507,0.965763,0.954519,0.970129
587.000000,0.965625,0.967923,0.965855,0.955913,0.937500
588.000000,0.957169,0.964614,0.965855,0.956924,0.939338
589.000000,0.938419,0.956893,0.963327,0.956250,0.886029
590.000000,0.925092,0.950322,0.961075,0.955561,0.892463
591.000000,0.899724,0.937408,0.955446,0.952221,0.843290
592.000000,0.871140,0.918382,0.947335,0.947319,0.794577
593.000000,0.847794,0.902482,0.940349,0.942861,0.822610
594.000000,0.833915,0.886167,0.931962,0.937668,0.816636
595.000000,0.823254,0.874173,0.923920,0.933701,0.839154
596.000000,0.816636,0.858180,0.914844,0.929902,0.810202
597.000000,0.813511,0.842325,0.905124,0.924678,0.778952
598.000000,0.808915,0.828355,0.896484,0.920021,0.799632
599.000000,0.807077,0.820496,0.888695,0.915717,0.807445
600.000000,0.800460,0.811857,0.881089,0.911336,0.806066
601.000000,0.801195,0.808915,0.873162,0.906602,0.813879
602.000000,0.809375,0.811443,0.864913,0.902037,0.819853
603.000000,0.814338,0.811627,0.857054,0.897442,0.824448
604.000000,0.818382,0.812730,0.849449,0.892218,0.827665
605.000000,0.820312,0.810386,0.842279,0.886075,0.815717
606.000000,0.821507,0.811351,0.834766,0.880346,0.819853
607.000000,0.822610,0.815993,0.829159,0.875414,0.825368
608.000000,0.821783,0.818061,0.823208,0.870343,0.820312
609.000000,0.824632,0.821507,0.821002,0.866299,0.841912
610.000000,0.828309,0.824311,0.818084,0.862163,0.834099
611.000000,0.832169,0.826838,0.817877,0.857721,0.839154
612.000000,0.830882,0.826746,0.819095,0.852191,0.818934
613.000000,0.828768,0.825276,0.818451,0.846461,0.809743
614.000000,0.816636,0.820634,0.816682,0.839844,0.781250
615.000000,0.804320,0.816314,0.813350,0.833624,0.772518
616.000000,0.792096,0.812132,0.811742,0.827221,0.778033
617.000000,0.784007,0.807445,0.811719,0.821921,0.778493
618.000000,0.774173,0.801471,0.809766,0.815962,0.760570
619.000000,0.765901,0.791268,0.806388,0.811091,0.739890
620.000000,0.762868,0.783594,0.803952,0.806587,0.757353
621.000000,0.756985,0.774540,0.800689,0.803431,0.748621
622.000000,0.751746,0.767877,0.797312,0.802022,0.752298
623.000000,0.748713,0.761443,0.793359,0.799449,0.745404
624.000000,0.755515,0.760708,0.790671,0.798024,0.773897
625.000000,0.760937,0.761903,0.789108,0.796201,0.784467
626.000000,0.767187,0.762086,0.787109,0.795190,0.779871
627.000000,0.771599,0.761673,0.784559,0.795037,0.774357
628.000000,0.774081,0.761397,0.781434,0.793643,0.757812
629.000000,0.765074,0.760294,0.775781,0.791023,0.728860
630.000000,0.752390,0.756664,0.770129,0.788189,0.721048
631.000000,0.742187,0.754687,0.764614,0.785355,0.728860
632.000000,0.728125,0.749862,0.758869,0.781495,0.704044
633.000000,0.716544,0.745312,0.753378,0.777344,0.699908
634.000000,0.705882,0.735478,0.748093,0.772273,0.675551
635.000000,0.690901,0.721645,0.741774,0.766621,0.646140
636.000000,0.673621,0.707904,0.734995,0.760708,0.642463
637.000000,0.668934,0.698529,0.730101,0.755882,0.680607
638.000000,0.669026,0.692785,0.727091,0.751884,0.700368
639.000000,0.678860,0.692371,0.726333,0.747978,0.724724
640.000000,0.688419,0.689660,0.723162,0.743306,0.693934
641.000000,0.699540,0.686581,0.720634,0.738603,0.698070
642.000000,0.703676,0.686305,0.718084,0.734681,0.701287
643.000000,0.703401,0.686213,0.715763,0.730990,0.698989
644.000000,0.703768,0.691314,0.713396,0.729167,0.726563
645.000000,0.706985,0.697702,0.709674,0.727083,0.710018
646.000000,0.707629,0.703585,0.705744,0.724525,0.701287
647.000000,0.710386,0.707031,0.702780,0.722411,0.715074
648.000000,0.710937,0.707169,0.699977,0.720450,0.701746
649.000000,0.702482,0.703125,0.697748,0.718597,0.684283
650.000000,0.699265,0.703125,0.696392,0.716483,0.693934
651.000000,0.708272,0.707950,0.697266,0.716406,0.746323
652.000000,0.712776,0.711581,0.698943,0.715916,0.737592
653.000000,0.722151,0.716544,0.701379,0.716023,0.748621
654.000000,0.738511,0.720496,0.705905,0.715763,0.766085
655.000000,0.758364,0.728814,0.713258,0.716054,0.793199
656.000000,0.769118,0.738695,0.721140,0.716728,0.800092
657.000000,0.780147,0.746461,0.726746,0.717341,0.792739
658.000000,0.784467,0.753309,0.730239,0.717754,0.770221
659.000000,0.786949,0.762730,0.732927,0.719409,0.778493
660.000000,0.781066,0.769715,0.736420,0.720833,0.763787
661.000000,0.767371,0.768244,0.738097,0.720925,0.731618
662.000000,0.759375,0.769761,0.740671,0.722549,0.752757
663.000000,0.754963,0.769715,0.743130,0.724157,0.748162
664.000000,0.749081,0.768015,0.744255,0.726608,0.749081
665.000000,0.747151,0.764108,0.746461,0.730208,0.754136
666.000000,0.751471,0.759421,0.749058,0.733900,0.753217
667.000000,0.748989,0.754182,0.750322,0.735892,0.740349
668.000000,0.739246,0.747105,0.750207,0.735861,0.699448
669.000000,0.723713,0.736397,0.749563,0.734084,0.671415
670.000000,0.713327,0.730239,0.749977,0.734360,0.702206
671.000000,0.709835,0.730653,0.749449,0.735616,0.735754
672.000000,0.710202,0.729596,0.749678,0.736979,0.742187
673.000000,0.718382,0.728814,0.749265,0.738358,0.740349
674.000000,0.722151,0.722932,0.745473,0.737148,0.690257
675.000000,0.719118,0.716222,0.740165,0.736382,0.687040
676.000000,0.719301,0.714568,0.736994,0.737561,0.736673
677.000000,0.715809,0.713006,0.733594,0.737883,0.724724
678.000000,0.713143,0.715763,0.731434,0.738725,0.727022
679.000000,0.723254,0.722702,0.729550,0.740610,0.740809
680.000000,0.738419,0.728768,0.729504,0.742907,0.762868
681.000000,0.742371,0.730836,0.730744,0.743244,0.756434
682.000000,0.745772,0.730790,0.730193,0.743382,0.741728
683.000000,0.751103,0.732123,0.730469,0.743551,0.753676
684.000000,0.753033,0.738143,0.730538,0.743030,0.750460
685.000000,0.752757,0.745588,0.730905,0.741973,0.761489
686.000000,0.753033,0.747702,0.731135,0.740564,0.757812
687.000000,0.750827,0.748300,0.730653,0.738496,0.730699
688.000000,0.747151,0.749127,0.732445,0.737331,0.735294
689.000000,0.738787,0.745910,0.734306,0.735003,0.708640
690.000000,0.729320,0.741039,0.734903,0.733349,0.714154
691.000000,0.718934,0.735983,0.733410,0.732491,0.705882
692.000000,0.720037,0.735432,0.733111,0.731939,0.736213
693.000000,0.715901,0.731526,0.731824,0.730821,0.714614
694.000000,0.710754,0.724770,0.731457,0.728615,0.682904
695.000000,0.708732,0.719026,0.732307,0.726945,0.704044
696.000000,0.707077,0.713005,0.730354,0.725092,0.697610
697.000000,0.700551,0.710294,0.729297,0.723866,0.703585
698.000000,0.705790,0.710846,0.729986,0.725245,0.740809
699.000000,0.719945,0.715349,0.730630,0.727987,0.753676
700.000000,0.722335,0.715533,0.728286,0.728447,0.715993
701.000000,0.727114,0.717096,0.726540,0.727972,0.721507
702.000000,0.724724,0.712638,0.724035,0.726287,0.691636
703.000000,0.718934,0.712362,0.721944,0.725337,0.711857
704.000000,0.708364,0.714154,0.719462,0.725689,0.700827
705.000000,0.704136,0.713235,0.716130,0.725950,0.694853
706.000000,0.705974,0.716544,0.714775,0.725751,0.730699
707.000000,0.712408,0.718566,0.714430,0.725720,0.723805
708.000000,0.714154,0.716544,0.713695,0.725505,0.720588
709.000000,0.718199,0.713281,0.714315,0.724847,0.721048
710.000000,0.724173,0.714154,0.714844,0.723575,0.724724
711.000000,0.724632,0.715303,0.716199,0.722794,0.732996
712.000000,0.732812,0.722610,0.717624,0.723560,0.764706
713.000000,0.739522,0.726838,0.719600,0.723575,0.754136
714.000000,0.745404,0.731801,0.722978,0.723575,0.750460
715.000000,0.753585,0.738879,0.726057,0.723713,0.765625
716.000000,0.759467,0.742050,0.729297,0.723866,0.762408
717.000000,0.760110,0.746461,0.732514,0.725107,0.767923
718.000000,0.760846,0.750184,0.733364,0.725858,0.757812
719.000000,0.761765,0.753585,0.733433,0.727405,0.755055
720.000000,0.758272,0.755928,0.735041,0.728539,0.748162
721.000000,0.756066,0.757767,0.736535,0.730055,0.751379
722.000000,0.756158,0.758134,0.740372,0.731127,0.768382
723.000000,0.755974,0.758410,0.742624,0.732537,0.756893
724.000000,0.756158,0.758961,0.745381,0.734972,0.755974
725.000000,0.760386,0.759329,0.749104,0.737148,0.769301
726.000000,0.758456,0.757261,0.749655,0.738618,0.741728
727.000000,0.751838,0.753998,0.750230,0.739675,0.735294
728.000000,0.748437,0.752206,0.751195,0.739645,0.739890
729.000000,0.747978,0.752068,0.752826,0.739645,0.753676
730.000000,0.744853,0.752619,0.754274,0.740901,0.753676
731.000000,0.749081,0.753768,0.755767,0.742279,0.762868
732.000000,0.754963,0.753401,0.755767,0.744715,0.764706
733.000000,0.756801,0.752619,0.755515,0.745956,0.749081
734.000000,0.752298,0.750138,0.754550,0.746967,0.731158
735.000000,0.748897,0.746875,0.753102,0.748361,0.736673
736.000000,0.744853,0.746967,0.752114,0.748759,0.742647
737.000000,0.741268,0.748116,0.751057,0.749525,0.746783
738.000000,0.741452,0.749127,0.750666,0.750505,0.750000
739.000000,0.746875,0.749586,0.750827,0.751746,0.758272
740.000000,0.752757,0.750827,0.751723,0.753125,0.766085
741.000000,0.754687,0.749770,0.751769,0.753768,0.752298
742.000000,0.755147,0.748208,0.750804,0.753248,0.749081
743.000000,0.759007,0.750230,0.751425,0.753753,0.769301
744.000000,0.755974,0.751425,0.750781,0.753508,0.743107
745.000000,0.752849,0.752803,0.749839,0.753002,0.750460
746.000000,0.749081,0.751884,0.749426,0.752037,0.733456
747.000000,0.740257,0.747702,0.747909,0.749939,0.704963
748.000000,0.728125,0.743566,0.746346,0.748300,0.708640
749.000000,0.725827,0.740901,0.745244,0.747518,0.731618
750.000000,0.723254,0.738051,0.744439,0.747166,0.737592
751.000000,0.731985,0.740533,0.745152,0.748024,0.777114
752.000000,0.747151,0.743704,0.745956,0.748437,0.780790
753.000000,0.760294,0.744210,0.747220,0.749020,0.774357
754.000000,0.769669,0.747748,0.749586,0.749770,0.778493
755.000000,0.780790,0.752022,0.752413,0.750567,0.793199
756.000000,0.784375,0.758180,0.755032,0.752344,0.795037
757.000000,0.789706,0.768428,0.758065,0.754749,0.807445
758.000000,0.796048,0.778171,0.760869,0.756955,0.806066
759.000000,0.801654,0.785662,0.763281,0.758716,0.806526
760.000000,0.800368,0.790579,0.764315,0.759819,0.786765
761.000000,0.799448,0.791912,0.766222,0.760738,0.790441
762.000000,0.793015,0.791360,0.767532,0.761091,0.775276
763.000000,0.780790,0.788419,0.766314,0.760953,0.744945
764.000000,0.767279,0.784467,0.766108,0.761213,0.738971
765.000000,0.757721,0.779044,0.765533,0.761290,0.738971
766.000000,0.749540,0.774494,0.766337,0.761520,0.749540
767.000000,0.744393,0.768704,0.768566,0.761611,0.749540
768.000000,0.740901,0.760846,0.769508,0.760861,0.727482
769.000000,0.732629,0.749954,0.767808,0.758839,0.697610
770.000000,0.723254,0.740487,0.765533,0.756373,0.692096
771.000000,0.716452,0.732996,0.762454,0.755147,0.715533
772.000000,0.704596,0.724494,0.757927,0.753186,0.690257
773.000000,0.701654,0.721278,0.754848,0.751302,0.712776
774.000000,0.706710,0.719669,0.752068,0.750628,0.722886
775.000000,0.711213,0.717233,0.748139,0.749433,0.714614
776.000000,0.711305,0.713879,0.744187,0.748851,0.715993
777.000000,0.718934,0.711765,0.740234,0.749632,0.728401
778.000000,0.720588,0.711121,0.735983,0.750046,0.721048
779.000000,0.725460,0.716085,0.733019,0.750567,0.747243
780.000000,0.730882,0.721048,0.730767,0.750705,0.741728
781.000000,0.733548,0.722426,0.727711,0.749112,0.729320
782.000000,0.729871,0.724403,0.724449,0.746752,0.710018
783.000000,0.727574,0.724081,0.722679,0.744593,0.709559
784.000000,0.717463,0.721461,0.720565,0.741866,0.696691
785.000000,0.701654,0.716268,0.716751,0.737515,0.662684
786.000000,0.685846,0.709697,0.711788,0.732690,0.650276
787.000000,0.678217,0.704044,0.707904,0.728171,0.671875
788.000000,0.676838,0.702206,0.706664,0.724724,0.702665
789.000000,0.677206,0.697335,0.706710,0.721124,0.698529
790.000000,0.689614,0.695634,0.708341,0.719056,0.724724
791.000000,0.703493,0.694669,0.708548,0.716697,0.719669
792.000000,0.717371,0.697794,0.711098,0.715564,0.741268
793.000000,0.723346,0.700092,0.712086,0.715150,0.732537
794.000000,0.728768,0.702987,0.712224,0.714706,0.725643
795.000000,0.732353,0.710983,0.713626,0.714828,0.742647
796.000000,0.736857,0.720175,0.714936,0.714583,0.742187
797.000000,0.726011,0.721691,0.712868,0.712500,0.687040
798.000000,0.722886,0.723116,0.712661,0.712148,0.716912
799.000000,0.720312,0.724540,0.710937,0.712653,0.712776
800.000000,0.713695,0.723024,0.709329,0.713235,0.709559
801.000000,0.709467,0.723162,0.708915,0.713419,0.721048
802.000000,0.716820,0.721415,0.709605,0.714537,0.723805
803.000000,0.717647,0.720267,0.710179,0.714813,0.721048
804.000000,0.719026,0.719669,0.711328,0.714706,0.719669
805.000000,0.719669,0.716682,0.713833,0.714645,0.712776
806.000000,0.714798,0.712132,0.716153,0.714001,0.696691
807.000000,0.709651,0.713235,0.717463,0.712990,0.698070
808.000000,0.702849,0.710248,0.716682,0.711857,0.687040
809.000000,0.697794,0.708410,0.716475,0.710095,0.694393
810.000000,0.694945,0.707307,0.715165,0.708655,0.698529
811.000000,0.694669,0.704733,0.713948,0.707521,0.695312
812.000000,0.695221,0.702436,0.711926,0.707215,0.700827
813.000000,0.697059,0.699954,0.710110,0.706771,0.696232
814.000000,0.696599,0.697197,0.708433,0.706618,0.692096
815.000000,0.696415,0.695680,0.706181,0.707782,0.697610
816.000000,0.697610,0.696140,0.704136,0.709482,0.701287
817.000000,0.698254,0.696737,0.704986,0.710555,0.704044
818.000000,0.698437,0.697748,0.703998,0.710371,0.697151
819.000000,0.699908,0.698254,0.703332,0.710401,0.699448
820.000000,0.702757,0.699586,0.703447,0.709972,0.711857
821.000000,0.702665,0.700138,0.702436,0.709344,0.700827
822.000000,0.701562,0.699908,0.701172,0.707920,0.698529
823.000000,0.702206,0.700322,0.700138,0.706847,0.700368
824.000000,0.697151,0.698529,0.697863,0.705132,0.674173
825.000000,0.693199,0.697978,0.696829,0.703447,0.692096
826.000000,0.689062,0.695864,0.696002,0.701379,0.680147
827.000000,0.686673,0.694118,0.695427,0.701363,0.686581
828.000000,0.683548,0.692877,0.695312,0.700291,0.684743
829.000000,0.686121,0.691636,0.694945,0.699433,0.687040
830.000000,0.686949,0.690074,0.694830,0.698989,0.696232
831.000000,0.690165,0.689614,0.694876,0.698162,0.696232
832.000000,0.702114,0.694393,0.697151,0.698912,0.746323
833.000000,0.713419,0.698483,0.699403,0.699586,0.741268
834.000000,0.722794,0.704458,0.701494,0.700061,0.733915
835.000000,0.728952,0.707950,0.702964,0.700536,0.727022
836.000000,0.732261,0.711213,0.703539,0.701072,0.712776
837.000000,0.722243,0.712178,0.703148,0.701011,0.696232
838.000000,0.714154,0.713787,0.703332,0.701471,0.700827
839.000000,0.707077,0.714936,0.703286,0.701608,0.698529
840.000000,0.701930,0.715441,0.702757,0.701700,0.701287
841.000000,0.698162,0.715211,0.702413,0.701654,0.693934
842.000000,0.694577,0.708410,0.701402,0.700904,0.678309
843.000000,0.686581,0.700368,0.699426,0.699724,0.660846
844.000000,0.677941,0.692509,0.698483,0.698499,0.655331
845.000000,0.668566,0.685248,0.696599,0.697059,0.654412
846.000000,0.649357,0.673759,0.692486,0.693612,0.597886
847.000000,0.633640,0.664108,0.688143,0.690135,0.599724
848.000000,0.621967,0.654274,0.684030,0.686979,0.602482
849.000000,0.609835,0.643888,0.679412,0.683487,0.594669
850.000000,0.597151,0.632858,0.674150,0.679458,0.590993
851.000000,0.596232,0.622794,0.669003,0.675873,0.593290
852.000000,0.595772,0.614706,0.661558,0.672503,0.597426
853.000000,0.595496,0.608732,0.654550,0.669194,0.601103
854.000000,0.597978,0.603906,0.648208,0.666958,0.607077
855.000000,0.598989,0.598070,0.641659,0.663756,0.596048
856.000000,0.600919,0.598575,0.636167,0.661183,0.602941
857.000000,0.604412,0.600092,0.632100,0.658793,0.614890
858.000000,0.607629,0.601562,0.627918,0.656541,0.617187
859.000000,0.610110,0.604044,0.623966,0.654289,0.619485
860.000000,0.614522,0.606756,0.619807,0.651685,0.618107
861.000000,0.619393,0.610156,0.616475,0.649387,0.627298
862.000000,0.617647,0.611029,0.612868,0.644715,0.606158
863.000000,0.614982,0.611305,0.610018,0.640135,0.603860
864.000000,0.612776,0.611443,0.607675,0.635953,0.608456
865.000000,0.611397,0.612960,0.605515,0.632093,0.611213
866.000000,0.609467,0.614430,0.606503,0.628922,0.617647
867.000000,0.606342,0.611994,0.606043,0.625398,0.590533
868.000000,0.603401,0.609191,0.605377,0.621676,0.589154
869.000000,0.598621,0.605698,0.604871,0.617877,0.584559
870.000000,0.590257,0.600827,0.603791,0.613480,0.569393
871.000000,0.577757,0.593612,0.601884,0.608854,0.555147
872.000000,0.564982,0.585662,0.598346,0.603799,0.526654
873.000000,0.551011,0.577206,0.594255,0.599081,0.519301
874.000000,0.537960,0.568290,0.589867,0.594547,0.519301
875.000000,0.531434,0.560846,0.586903,0.590625,0.536765
876.000000,0.532261,0.555009,0.584720,0.589338,0.559283
877.000000,0.537776,0.551379,0.581687,0.587822,0.554228
878.000000,0.546691,0.548851,0.579021,0.586535,0.563879
879.000000,0.558180,0.548070,0.576884,0.585937,0.576746
880.000000,0.556434,0.543934,0.572380,0.583839,0.528033
881.000000,0.545588,0.538925,0.566268,0.580898,0.505055
882.000000,0.538695,0.538235,0.561949,0.578309,0.519761
883.000000,0.529504,0.538097,0.557652,0.575536,0.517923
884.000000,0.520496,0.539338,0.553814,0.573024,0.531710
885.000000,0.522886,0.539660,0.550253,0.571155,0.539982
886.000000,0.527390,0.536489,0.545749,0.568643,0.527574
887.000000,0.522059,0.530377,0.540878,0.564583,0.493107
888.000000,0.518382,0.523943,0.536397,0.560662,0.499540
889.000000,0.514430,0.517463,0.532767,0.557077,0.511949
890.000000,0.512040,0.517463,0.530699,0.554075,0.528033
891.000000,0.515625,0.521507,0.530216,0.551348,0.545496
892.000000,0.530790,0.526425,0.532330,0.550107,0.568934
893.000000,0.542096,0.530239,0.534168,0.548514,0.556066
894.000000,0.552114,0.533272,0.536305,0.546967,0.562040
895.000000,0.557445,0.534743,0.537201,0.545083,0.554687
896.000000,0.561305,0.538465,0.537477,0.543321,0.564798
897.000000,0.559926,0.545358,0.537868,0.542371,0.562040
898.000000,0.561489,0.551792,0.537868,0.541529,0.563879
899.000000,0.562592,0.557353,0.537408,0.540962,0.567555
900.000000,0.562868,0.560156,0.538810,0.540518,0.556066
901.000000,0.562408,0.561857,0.541682,0.540763,0.562500
902.000000,0.553676,0.556801,0.541613,0.540487,0.518382
903.000000,0.548437,0.554963,0.542601,0.541100,0.537684
904.000000,0.540257,0.551425,0.542348,0.541345,0.526654
905.000000,0.535662,0.549265,0.542004,0.541222,0.533088
906.000000,0.528768,0.545588,0.542027,0.540181,0.528033
907.000000,0.529136,0.541406,0.543382,0.539047,0.520221
908.000000,0.525919,0.537178,0.544485,0.537638,0.521599
909.000000,0.525276,0.532767,0.545060,0.535861,0.523437
910.000000,0.525368,0.530515,0.545335,0.536045,0.533548
911.000000,0.527849,0.528309,0.545083,0.537224,0.540441
912.000000,0.531158,0.530147,0.543474,0.537791,0.536765
913.000000,0.533732,0.529825,0.542394,0.538343,0.534467
914.000000,0.533456,0.529366,0.540395,0.538021,0.522059
915.000000,0.533915,0.529642,0.539453,0.537883,0.535846
916.000000,0.533180,0.530515,0.538051,0.538189,0.536765
917.000000,0.531526,0.531342,0.536374,0.539369,0.528493
918.000000,0.527298,0.530515,0.533846,0.539828,0.513327
919.000000,0.526562,0.530009,0.531388,0.540043,0.518382
920.000000,0.522243,0.528079,0.529297,0.539583,0.514246
921.000000,0.517647,0.525414,0.526861,0.538526,0.513787
922.000000,0.514522,0.523024,0.526585,0.536657,0.512868
923.000000,0.514338,0.520818,0.525322,0.535202,0.512408
924.000000,0.511765,0.519164,0.524265,0.533318,0.505515
925.000000,0.509743,0.515993,0.522817,0.531633,0.504136
926.000000,0.506526,0.512086,0.521301,0.529396,0.497702
927.000000,0.503860,0.509191,0.520267,0.527313,0.499540
928.000000,0.503860,0.509099,0.519807,0.525597,0.512408
929.000000,0.507169,0.509467,0.519738,0.524081,0.522059
930.000000,0.510846,0.510294,0.519187,0.522963,0.522518
931.000000,0.516360,0.511443,0.518428,0.521722,0.525276
932.000000,0.521783,0.512822,0.517923,0.521998,0.526654
933.000000,0.526379,0.515119,0.517969,0.521921,0.535386
934.000000,0.528585,0.517877,0.518520,0.522135,0.533088
935.000000,0.531526,0.521186,0.518589,0.522273,0.537224
936.000000,0.535478,0.525919,0.519003,0.522840,0.545037
937.000000,0.536305,0.529044,0.519118,0.523192,0.530790
938.000000,0.535202,0.530790,0.519945,0.523468,0.529871
939.000000,0.533088,0.530836,0.520152,0.523437,0.522518
940.000000,0.531985,0.531755,0.521025,0.523376,0.531710
941.000000,0.528493,0.531985,0.521714,0.522947,0.527574
942.000000,0.528125,0.532215,0.522518,0.522687,0.528952
943.000000,0.529044,0.532123,0.523621,0.522687,0.534467
944.000000,0.530239,0.531664,0.524770,0.522901,0.528493
945.000000,0.528676,0.530331,0.525758,0.522503,0.523897
946.000000,0.526011,0.527252,0.526585,0.521752,0.514246
947.000000,0.524265,0.526195,0.527619,0.521477,0.520221
948.000000,0.520956,0.525000,0.527895,0.521630,0.517923
949.000000,0.518750,0.524494,0.527665,0.521599,0.517463
950.000000,0.520129,0.524403,0.528079,0.522151,0.530790
951.000000,0.525643,0.525827,0.528906,0.523085,0.541820
952.000000,0.529779,0.527022,0.529619,0.524020,0.540901
953.000000,0.532629,0.526792,0.529458,0.524678,0.532169
954.000000,0.533364,0.526057,0.528860,0.525199,0.521140
955.000000,0.531710,0.525919,0.528125,0.525812,0.522518
956.000000,0.527941,0.526792,0.527022,0.526654,0.522978
957.000000,0.524540,0.527160,0.526677,0.527466,0.523897
958.000000,0.518015,0.525322,0.525161,0.527037,0.499540
959.000000,0.527482,0.530423,0.527459,0.528585,0.568474
960.000000,0.536029,0.533869,0.529136,0.530009,0.565257
961.000000,0.546324,0.537132,0.531480,0.531648,0.574449
962.000000,0.553952,0.539246,0.533134,0.532828,0.562040
963.000000,0.567187,0.542601,0.534697,0.533839,0.565717
964.000000,0.566360,0.546921,0.536489,0.534880,0.564338
965.000000,0.568199,0.552114,0.539017,0.536121,0.574449
966.000000,0.568566,0.557445,0.542119,0.537163,0.576287
967.000000,0.571967,0.562960,0.545060,0.538771,0.579044
968.000000,0.574357,0.570772,0.548047,0.540365,0.577665
969.000000,0.577849,0.572105,0.551264,0.542341,0.581801
970.000000,0.577574,0.572886,0.553378,0.543719,0.573070
971.000000,0.576746,0.572656,0.554894,0.545205,0.572151
972.000000,0.571967,0.571967,0.555607,0.546078,0.555147
973.000000,0.567371,0.570864,0.556733,0.546752,0.554687
974.000000,0.560202,0.569026,0.557973,0.547335,0.545956
975.000000,0.557537,0.567555,0.559835,0.548529,0.559743
976.000000,0.555239,0.565993,0.561719,0.550077,0.560662
977.000000,0.558364,0.565165,0.564062,0.551762,0.570772
978.000000,0.563511,0.565441,0.568107,0.553845,0.580423
979.000000,0.567371,0.563787,0.567946,0.555438,0.565257
980.000000,0.572243,0.564890,0.568888,0.557215,0.584099
981.000000,0.577665,0.566452,0.569554,0.558747,0.587776
982.000000,0.578676,0.568520,0.570244,0.559911,0.575827
983.000000,0.575735,0.569623,0.570244,0.561029,0.565717
984.000000,0.577941,0.572656,0.570841,0.562868,0.576287
985.000000,0.574540,0.573392,0.570473,0.564354,0.567096
986.000000,0.571691,0.574678,0.570335,0.566039,0.573529
987.000000,0.570588,0.574632,0.569899,0.567586,0.570312
988.000000,0.570312,0.573024,0.569233,0.569746,0.564338
989.000000,0.568842,0.573392,0.568589,0.569761,0.568934
990.000000,0.563971,0.569256,0.567073,0.569010,0.542739
991.000000,0.556801,0.564246,0.565349,0.567785,0.537684
992.000000,0.546967,0.558778,0.563649,0.566422,0.521140
993.000000,0.540165,0.555239,0.562431,0.565242,0.530331
994.000000,0.531434,0.550138,0.561397,0.563940,0.525276
995.000000,0.526471,0.545221,0.559306,0.562056,0.517923
996.000000,0.522610,0.539706,0.557192,0.560126,0.518382
997.000000,0.523529,0.535248,0.554940,0.558349,0.525735
998.000000,0.522518,0.531342,0.552183,0.556602,0.525276
999.000000,0.522702,0.527068,0.550230,0.554749,0.526195
1000.000000,0.526195,0.526333,0.547794,0.553493,0.535386
1001.000000,0.531618,0.527114,0.545680,0.552604,0.545496
1002.000000,0.535202,0.529366,0.544072,0.552221,0.543658
1003.000000,0.540717,0.531618,0.543428,0.552160,0.552849
1004.000000,0.546691,0.534697,0.542417,0.552497,0.556066
1005.000000,0.550000,0.538097,0.541659,0.552237,0.551930
1006.000000,0.552022,0.541820,0.540763,0.552068,0.555607
1007.000000,0.554504,0.544853,0.540051,0.551578,0.556066
1008.000000,0.555147,0.547932,0.539637,0.550766,0.556066
1009.000000,0.554779,0.550735,0.538902,0.550398,0.554228
1010.000000,0.554963,0.552482,0.539407,0.549357,0.552849
1011.000000,0.552941,0.552482,0.539798,0.547947,0.545496
1012.000000,0.550460,0.552482,0.540924,0.546875,0.543658
1013.000000,0.550460,0.552803,0.542210,0.546553,0.556066
1014.000000,0.553585,0.554182,0.544439,0.546339,0.569853
1015.000000,0.558824,0.556893,0.547495,0.546737,0.579044
1016.000000,0.563879,0.558410,0.550115,0.546645,0.570772
1017.000000,0.567831,0.559145,0.551999,0.546415,0.563419
1018.000000,0.567923,0.559191,0.553562,0.546155,0.556526
1019.000000,0.567279,0.560432,0.555584,0.546078,0.566636
1020.000000,0.566176,0.562500,0.557491,0.547105,0.573529
1021.000000,0.568474,0.566176,0.559329,0.548591,0.582261
1022.000000,0.571507,0.569669,0.561075,0.550506,0.578585
1023.000000,0.574449,0.571186,0.561994,0.551869,0.571232
1024.000000,0.575643,0.571461,0.562822,0.553447,0.572610
1025.000000,0.575919,0.571048,0.563971,0.555346,0.574908
1026.000000,0.574540,0.571507,0.564959,0.557246,0.575368
1027.000000,0.574081,0.572794,0.565970,0.558931,0.576287
1028.000000,0.576011,0.575230,0.567210,0.560784,0.580882
1029.000000,0.583456,0.579550,0.569991,0.563572,0.609835
1030.000000,0.590993,0.583456,0.572978,0.566146,0.612592
1031.000000,0.597886,0.586213,0.576195,0.568290,0.609835
1032.000000,0.604136,0.589108,0.579389,0.570420,0.607537
1033.000000,0.610202,0.593107,0.582146,0.572365,0.611213
1034.000000,0.614154,0.598805,0.585133,0.574816,0.629596
1035.000000,0.617187,0.604090,0.587569,0.577344,0.627757
1036.000000,0.622426,0.610156,0.590832,0.580024,0.636029
1037.000000,0.626103,0.615119,0.593957,0.582353,0.625919
1038.000000,0.629779,0.619991,0.597610,0.584804,0.629596
1039.000000,0.630147,0.622151,0.600850,0.587377,0.631434
1040.000000,0.631710,0.624449,0.603952,0.590135,0.635570
1041.000000,0.630607,0.626517,0.606365,0.592969,0.630515
1042.000000,0.633180,0.629642,0.609375,0.596140,0.638787
1043.000000,0.634926,0.632353,0.612730,0.598882,0.638327
1044.000000,0.637316,0.633732,0.616268,0.601333,0.643382
1045.000000,0.639798,0.635754,0.619922,0.603630,0.647978
1046.000000,0.644026,0.637316,0.623736,0.606327,0.651654
1047.000000,0.648162,0.640671,0.627895,0.609528,0.659467
1048.000000,0.652849,0.643888,0.631939,0.613036,0.661765
1049.000000,0.656710,0.647013,0.634582,0.616238,0.662684
1050.000000,0.661121,0.650460,0.637454,0.619455,0.670037
1051.000000,0.663879,0.653952,0.640234,0.622227,0.665441
1052.000000,0.665349,0.656755,0.643199,0.625168,0.666820
1053.000000,0.667555,0.660202,0.646278,0.628554,0.672794
1054.000000,0.666912,0.661811,0.647771,0.631449,0.659467
1055.000000,0.662684,0.661903,0.648828,0.633915,0.648897
1056.000000,0.659651,0.661765,0.649540,0.636412,0.650276
1057.000000,0.659191,0.662270,0.651471,0.639354,0.664522
1058.000000,0.657904,0.662730,0.653309,0.642203,0.666360
1059.000000,0.659835,0.663373,0.655193,0.644179,0.669118
1060.000000,0.665257,0.663971,0.657215,0.646293,0.676011
1061.000000,0.670956,0.665303,0.659628,0.648591,0.678768
1062.000000,0.674081,0.666636,0.661696,0.651011,0.680147
1063.000000,0.675643,0.666774,0.663488,0.653110,0.674173
1064.000000,0.675551,0.667693,0.664752,0.654412,0.668658
1065.000000,0.675643,0.670450,0.666176,0.656036,0.676471
1066.000000,0.674265,0.672610,0.667187,0.657230,0.671875
1067.000000,0.672518,0.673300,0.667785,0.658747,0.671415
1068.000000,0.670129,0.672886,0.667808,0.659835,0.662224
1069.000000,0.667739,0.671645,0.667509,0.660677,0.656710
1070.000000,0.664614,0.670129,0.667050,0.661520,0.660846
1071.000000,0.662684,0.668474,0.666889,0.662577,0.662224
1072.000000,0.659191,0.665855,0.666245,0.663082,0.653952
1073.000000,0.658364,0.664246,0.665510,0.663741,0.658088
1074.000000,0.660018,0.663879,0.665786,0.664461,0.664982
1075.000000,0.662408,0.663511,0.666981,0.665288,0.672794
1076.000000,0.665349,0.664017,0.668313,0.666130,0.676930
1077.000000,0.668107,0.663649,0.668474,0.666406,0.667739
1078.000000,0.671048,0.664706,0.668796,0.666774,0.672794
1079.000000,0.672518,0.666268,0.668957,0.667096,0.672335
1080.000000,0.670772,0.666590,0.668359,0.666896,0.664062
1081.000000,0.669118,0.667233,0.667854,0.667004,0.668658
1082.000000,0.669853,0.668980,0.667417,0.667157,0.671415
1083.000000,0.669485,0.670267,0.667256,0.667096,0.670956
1084.000000,0.669761,0.671140,0.667509,0.667570,0.673713
1085.000000,0.671599,0.671186,0.667348,0.668382,0.673254
1086.000000,0.671232,0.670175,0.667096,0.668934,0.666820
1087.000000,0.669669,0.669761,0.666705,0.668903,0.663603
1088.000000,0.674081,0.671783,0.668244,0.669792,0.693015
1089.000000,0.676471,0.673116,0.669692,0.670343,0.685662
1090.000000,0.682904,0.677252,0.671921,0.671324,0.705423
1091.000000,0.690441,0.680836,0.674035,0.672181,0.704504
1092.000000,0.699632,0.684651,0.676815,0.673162,0.709559
1093.000000,0.702665,0.688373,0.679320,0.674295,0.708180
1094.000000,0.706801,0.691636,0.681388,0.675551,0.706342
1095.000000,0.708272,0.695588,0.683387,0.676762,0.712776
1096.000000,0.709007,0.699724,0.684949,0.677972,0.708180
1097.000000,0.710386,0.705009,0.687385,0.679473,0.716452
1098.000000,0.712316,0.707491,0.689637,0.681327,0.717831
1099.000000,0.714522,0.710662,0.691889,0.683349,0.717371
1100.000000,0.714982,0.711627,0.694439,0.685156,0.715074
1101.000000,0.718382,0.713695,0.697266,0.687255,0.725184
1102.000000,0.720496,0.715441,0.700046,0.689691,0.727022
1103.000000,0.724632,0.718474,0.703424,0.692371,0.738511
1104.000000,0.729320,0.721921,0.706778,0.694899,0.740809
1105.000000,0.732629,0.723805,0.709697,0.696860,0.731618
1106.000000,0.730974,0.724678,0.712201,0.698192,0.716912
1107.000000,0.727114,0.723805,0.714407,0.699525,0.707721
1108.000000,0.722518,0.723575,0.715533,0.700950,0.715533
1109.000000,0.717187,0.723254,0.716958,0.702344,0.714154
1110.000000,0.714338,0.723483,0.717555,0.704121,0.717371
1111.000000,0.714798,0.722886,0.718290,0.705806,0.719210
1112.000000,0.717555,0.722335,0.718888,0.707475,0.721507
1113.000000,0.718842,0.720680,0.719577,0.709176,0.721967
1114.000000,0.720772,0.718980,0.720450,0.710846,0.723805
1115.000000,0.721875,0.718107,0.720956,0.712500,0.722886
1116.000000,0.723437,0.719118,0.721898,0.714507,0.727022
1117.000000,0.724816,0.721186,0.722495,0.716667,0.728401
1118.000000,0.723989,0.721415,0.722495,0.717494,0.717831
1119.000000,0.720312,0.720542,0.721898,0.718153,0.705423
1120.000000,0.717739,0.719807,0.721645,0.718306,0.710018
1121.000000,0.714890,0.719164,0.721025,0.718581,0.712776
1122.000000,0.712224,0.718520,0.720427,0.718765,0.715074
1123.000000,0.711305,0.717647,0.719164,0.718934,0.713235
1124.000000,0.714706,0.717509,0.718244,0.719470,0.722426
1125.000000,0.713971,0.715855,0.716981,0.719255,0.706342
1126.000000,0.710846,0.712868,0.715993,0.718888,0.697151
1127.000000,0.706618,0.709421,0.715303,0.718137,0.693934
1128.000000,0.703860,0.707583,0.714499,0.717524,0.699448
1129.000000,0.699265,0.706985,0.713764,0.716927,0.699448
1130.000000,0.696875,0.705423,0.712615,0.716238,0.694393
1131.000000,0.695772,0.703309,0.711236,0.715119,0.691636
1132.000000,0.701562,0.704090,0.711305,0.714982,0.722886
1133.000000,0.707526,0.705693,0.711670,0.714673,0.729265
1134.000000,0.712939,0.706102,0.711806,0.714197,0.726517
1135.000000,0.718822,0.707848,0.711852,0.713937,0.723805
1136.000000,0.723785,0.709778,0.711323,0.713921,0.716452
1137.000000,0.721487,0.711525,0.710473,0.714044,0.711397
1138.000000,0.717730,0.712628,0.710105,0.713875,0.710478
1139.000000,0.714706,0.713823,0.710404,0.713783,0.711397
1140.000000,0.712868,0.715845,0.710634,0.713691,0.714614
1141.000000,0.712684,0.718234,0.710772,0.713569,0.715533
1142.000000,0.710937,0.716212,0.710151,0.712941,0.702665
1143.000000,0.710110,0.713920,0.709807,0.712420,0.706342
1144.000000,0.704504,0.709605,0.707853,0.711072,0.683364
1145.000000,0.699724,0.706296,0.707072,0.710000,0.690717
1146.000000,0.696415,0.704550,0.707164,0.709065,0.698989
1147.000000,0.696048,0.703493,0.707509,0.708146,0.700827
1148.000000,0.694945,0.702528,0.707578,0.707579,0.700827
1149.000000,0.699724,0.702114,0.707968,0.707641,0.707261
1150.000000,0.703309,0.701517,0.708681,0.707595,0.708640
1151.000000,0.705790,0.701103,0.709669,0.707549,0.711397
1152.000000,0.707169,0.701608,0.708910,0.707304,0.707721
1153.000000,0.708088,0.701517,0.707718,0.707043,0.705423
1154.000000,0.708915,0.704320,0.706962,0.706676,0.711397
1155.000000,0.710570,0.706939,0.706618,0.707028,0.716912
1156.000000,0.713419,0.709605,0.707077,0.707978,0.725643
1157.000000,0.714614,0.710892,0.707192,0.708636,0.713695
1158.000000,0.720588,0.714338,0.708433,0.709831,0.735294
1159.000000,0.733272,0.721094,0.711604,0.712343,0.774816
1160.000000,0.743934,0.727252,0.714384,0.714871,0.770221
1161.000000,0.752941,0.733180,0.717142,0.717506,0.770680
1162.000000,0.764614,0.739614,0.720611,0.719145,0.772059
1163.000000,0.771324,0.745956,0.723736,0.720464,0.768842
1164.000000,0.771691,0.752482,0.728401,0.722135,0.776654
1165.000000,0.769761,0.756847,0.731893,0.723361,0.760570
1166.000000,0.765809,0.759375,0.734490,0.724510,0.750919
1167.000000,0.759007,0.761811,0.736351,0.725398,0.738051
1168.000000,0.754687,0.763006,0.738672,0.726624,0.747243
1169.000000,0.749449,0.760570,0.740832,0.727926,0.750460
1170.000000,0.751654,0.760708,0.743980,0.729825,0.771599
1171.000000,0.752298,0.759053,0.746117,0.731112,0.754136
1172.000000,0.756158,0.757583,0.748598,0.732935,0.757353
1173.000000,0.758548,0.756618,0.751287,0.734697,0.759191
1174.000000,0.761949,0.755699,0.754090,0.737500,0.767463
1175.000000,0.761673,0.756664,0.756755,0.740150,0.770221
1176.000000,0.765257,0.758778,0.759076,0.742586,0.772059
1177.000000,0.768015,0.762086,0.761949,0.744930,0.771140
1178.000000,0.767187,0.762868,0.762937,0.746737,0.755055
1179.000000,0.765165,0.763557,0.762063,0.748407,0.757353
1180.000000,0.764982,0.763327,0.762017,0.750429,0.769301
1181.000000,0.765717,0.765487,0.762270,0.752574,0.775735
1182.000000,0.764154,0.766085,0.761834,0.754427,0.763327
1183.000000,0.765441,0.766314,0.761466,0.756296,0.761489
1184.000000,0.765441,0.765303,0.760501,0.757828,0.757353
1185.000000,0.762684,0.763833,0.760248,0.759115,0.755515
1186.000000,0.759191,0.762454,0.760616,0.760202,0.758272
1187.000000,0.759375,0.761765,0.761926,0.761887,0.764246
1188.000000,0.760294,0.762868,0.762868,0.762914,0.766085
1189.000000,0.761765,0.763603,0.763580,0.762577,0.764706
1190.000000,0.761949,0.762316,0.762822,0.762117,0.756434
1191.000000,0.760570,0.759880,0.762684,0.761474,0.751379
1192.000000,0.757996,0.758686,0.762385,0.760784,0.751379
1193.000000,0.754596,0.757445,0.761880,0.760126,0.749081
1194.000000,0.752941,0.757353,0.761328,0.759452,0.756434
1195.000000,0.754136,0.758042,0.760937,0.759513,0.762408
1196.000000,0.756985,0.758778,0.760616,0.760003,0.765625
1197.000000,0.759007,0.758502,0.760133,0.760784,0.761489
1198.000000,0.761121,0.757858,0.760363,0.761198,0.759651
1199.000000,0.763143,0.758042,0.760823,0.761734,0.766544
1200.000000,0.763419,0.758778,0.760547,0.761474,0.763787
1201.000000,0.764614,0.760800,0.760340,0.762056,0.771599
1202.000000,0.766728,0.762868,0.760777,0.762546,0.772059
1203.000000,0.771875,0.766498,0.761971,0.763419,0.785386
1204.000000,0.774173,0.768658,0.763005,0.763771,0.778033
1205.000000,0.777665,0.770542,0.764292,0.764139,0.781250
1206.000000,0.780423,0.772518,0.765648,0.764583,0.785386
1207.000000,0.788235,0.777482,0.767992,0.765916,0.811121
1208.000000,0.796140,0.784007,0.770933,0.768244,0.824908
1209.000000,0.804136,0.789154,0.773598,0.770267,0.818015
1210.000000,0.813327,0.795496,0.777137,0.772197,0.827206
1211.000000,0.827298,0.803860,0.782330,0.774847,0.855239
1212.000000,0.838143,0.813189,0.788028,0.778248,0.865349
1213.000000,0.845221,0.820680,0.793589,0.781541,0.860294
1214.000000,0.855423,0.829779,0.799219,0.785263,0.869026
1215.000000,0.863695,0.838511,0.804527,0.789032,0.868566
1216.000000,0.868290,0.847794,0.810156,0.793030,0.878217
1217.000000,0.870037,0.854090,0.815786,0.796691,0.874081
1218.000000,0.872059,0.858640,0.821324,0.800168,0.870404
1219.000000,0.871691,0.863557,0.826356,0.803585,0.867187
1220.000000,0.873437,0.868566,0.832031,0.807613,0.877298
1221.000000,0.872243,0.870267,0.837063,0.811642,0.872243
1222.000000,0.875919,0.872978,0.843084,0.816345,0.892463
1223.000000,0.879779,0.875919,0.848300,0.821032,0.889706
